   1.000         0
   1.031         0
   1.061         0
   1.091         0
   1.121         0
   1.152         0
   1.182         0
   1.212         0
   1.242         0
   1.273         0
   1.303         0
   1.333         0
   1.363         0
   1.394         0
   1.424         0
   1.454         0
   1.484         0
   1.515         0
   1.545         0
   1.575         0
   1.605         0
   1.636         0
   1.666         0
   1.696         0
   1.726         0
   1.757         0
   1.787         0
   1.817         0
   1.847         0
   1.878         0
   1.908         0
   1.938         0
   1.968         0
   1.999         0
   2.029         0
   2.059         0
   2.089         0
   2.120         0
   2.150         0
   2.180         2
   2.210         2
   2.241         3
   2.271         2
   2.301         7
   2.331         5
   2.362         8
   2.392         3
   2.422         5
   2.452         2
   2.483         9
   2.513         8
   2.543         4
   2.574         2
   2.604         4
   2.634         4
   2.664         6
   2.695         4
   2.725        13
   2.755         7
   2.785         4
   2.816         5
   2.846         5
   2.876        10
   2.906         7
   2.937         7
   2.967        13
   2.997         9
   3.027        14
   3.058        15
   3.088         8
   3.118        10
   3.148         9
   3.179         4
   3.209        20
   3.239        10
   3.269        22
   3.300        15
   3.330        26
   3.360        20
   3.390        33
   3.421        22
   3.451        29
   3.481        32
   3.511        54
   3.542        65
   3.572       116
   3.602       201
   3.632       343
   3.663       501
   3.693       681
   3.723       832
   3.753       960
   3.784      1060
   3.814      1138
   3.844      1198
   3.874      1230
   3.905      1222
   3.935      1267
   3.965      1333
   3.995      1278
   4.026      1245
   4.056      1481
   4.086      1401
   4.116      1352
   4.147      1433
   4.177      1351
   4.207      1417
   4.238      1436
   4.268      1491
   4.298      1481
   4.328      1489
   4.359      1513
   4.389      1547
   4.419      1489
   4.449      1456
   4.480      1485
   4.510      1423
   4.540      1461
   4.570      1390
   4.601      1465
   4.631      1444
   4.661      1479
   4.691      1463
   4.722      1484
   4.752      1541
   4.782      1539
   4.812      1529
   4.843      1563
   4.873      1579
   4.903      1504
   4.933      1584
   4.964      1543
   4.994      1560
   5.024      1594
   5.054      1602
   5.085      1589
   5.115      1612
   5.145      1586
   5.175      1561
   5.206      1550
   5.236      1564
   5.266      1522
   5.296      1508
   5.327      1617
   5.357      1578
   5.387      1603
   5.417      1551
   5.448      1608
   5.478      1558
   5.508      1555
   5.538      1574
   5.569      1556
   5.599      1498
   5.629      1576
   5.659      1510
   5.690      1600
   5.720      1562
   5.750      1586
   5.781      1573
   5.811      1606
   5.841      1475
   5.871      1550
   5.902      1619
   5.932      1632
   5.962      1684
   5.992      1554
   6.023      1679
   6.053      1603
   6.083      1558
   6.113      1627
   6.144      1607
   6.174      1602
   6.204      1618
   6.234      1641
   6.265      1608
   6.295      1582
   6.325      1617
   6.355      1581
   6.386      1531
   6.416      1532
   6.446      1612
   6.476      1556
   6.507      1638
   6.537      1548
   6.567      1557
   6.597      1503
   6.628      1564
   6.658      1588
   6.688      1509
   6.718      1588
   6.749      1616
   6.779      1573
   6.809      1504
   6.839      1619
   6.870      1580
   6.900      1538
   6.930      1565
   6.960      1570
   6.991      1555
   7.021      1546
   7.051      1589
   7.081      1505
   7.112      1616
   7.142      1598
   7.172      1593
   7.202      1706
   7.233      1695
   7.263      1582
   7.293      1670
   7.323      1610
   7.354      1575
   7.384      1594
   7.414      1599
   7.445      1611
   7.475      1583
   7.505      1564
   7.535      1618
   7.566      1589
   7.596      1568
   7.626      1611
   7.656      1555
   7.687      1504
   7.717      1579
   7.747      1552
   7.777      1650
   7.808      1590
   7.838      1604
   7.868      1607
   7.898      1582
   7.929      1588
   7.959      1622
   7.989      1593
   8.019      1603
   8.050      1604
   8.080      1569
   8.110      1604
   8.140      1589
   8.171      1627
   8.201      1632
   8.231      1599
   8.261      1629
   8.292      1627
   8.322      1632
   8.352      1579
   8.382      1675
   8.413      1637
   8.443      1665
   8.473      1415
   8.503      1540
   8.534      1559
   8.564      1570
   8.594      1580
   8.624      1503
   8.655      1572
   8.685      1622
   8.715      1645
   8.745      1596
   8.776      1617
   8.806      1568
   8.836      1657
   8.866      1607
   8.897      1707
   8.927      1600
   8.957      1703
   8.988      1601
   9.018      1674
   9.048      1682
   9.078      1638
   9.109      1642
   9.139      1605
   9.169      1630
   9.199      1625
   9.230      1673
   9.260      1684
   9.290      1658
   9.320      1604
   9.351      1621
   9.381      1572
   9.411      1613
   9.441      1518
   9.472      1474
   9.502      1515
   9.532      1480
   9.562      1514
   9.593      1560
   9.623      1530
   9.653      1591
   9.683      1548
   9.714      1538
   9.744      1544
   9.774      1509
   9.804      1560
   9.835      1586
   9.865      1617
   9.895      1510
   9.925      1441
   9.956      1508
   9.986      1472
  10.016      1547
  10.046      1498
  10.077      1600
  10.107      1575
  10.137      1552
  10.167      1546
  10.198      1573
  10.228      1635
  10.258      1671
  10.288      1651
  10.319      1643
  10.349      1674
  10.379      1676
  10.409      1539
  10.440      1620
  10.470      1672
  10.500      1630
  10.530      1680
  10.561      1684
  10.591      1590
  10.621      1618
  10.652      1661
  10.682      1583
  10.712      1581
  10.742      1558
  10.773      1535
  10.803      1537
  10.833      1535
  10.863      1558
  10.894      1587
  10.924      1502
  10.954      1510
  10.984      1495
  11.015      1475
  11.045      1492
  11.075      1435
  11.105      1479
  11.136      1468
  11.166      1439
  11.196      1506
  11.226      1416
  11.257      1499
  11.287      1420
  11.317      1461
  11.347      1561
  11.378      1513
  11.408      1460
  11.438      1440
  11.468      1425
  11.499      1489
  11.529      1480
  11.559      1458
  11.589      1412
  11.620      1480
  11.650      1445
  11.680      1461
  11.710      1422
  11.741      1535
  11.771      1502
  11.801      1436
  11.831      1411
  11.862      1432
  11.892      1426
  11.922      1435
  11.952      1477
  11.983      1434
  12.013      1496
  12.043      1374
  12.073      1375
  12.104      1393
  12.134      1426
  12.164      1429
  12.195      1458
  12.225      1449
  12.255      1433
  12.285      1431
  12.316      1472
  12.346      1420
  12.376      1507
  12.406      1427
  12.437      1407
  12.467      1483
  12.497      1509
  12.527      1491
  12.558      1460
  12.588      1517
  12.618      1510
  12.648      1463
  12.679      1520
  12.709      1361
  12.739      1416
  12.769      1423
  12.800      1454
  12.830      1407
  12.860      1434
  12.890      1387
  12.921      1419
  12.951      1418
  12.981      1385
  13.011      1429
  13.042      1368
  13.072      1403
  13.102      1376
  13.132      1378
  13.163      1355
  13.193      1349
  13.223      1337
  13.253      1406
  13.284      1427
  13.314      1410
  13.344      1386
  13.374      1353
  13.405      1366
  13.435      1452
  13.465      1371
  13.495      1397
  13.526      1287
  13.556      1297
  13.586      1272
  13.616      1304
  13.647      1331
  13.677      1356
  13.707      1410
  13.737      1434
  13.768      1482
  13.798      1490
  13.828      1473
  13.859      1427
  13.889      1434
  13.919      1424
  13.949      1417
  13.980      1334
  14.010      1365
  14.040      1299
  14.070      1308
  14.101      1292
  14.131      1257
  14.161      1307
  14.191      1383
  14.222      1395
  14.252      1463
  14.282      1399
  14.312      1476
  14.343      1519
  14.373      1482
  14.403      1515
  14.433      1323
  14.464      1345
  14.494      1455
  14.524      1352
  14.554      1278
  14.585      1305
  14.615      1369
  14.645      1424
  14.675      1395
  14.706      1417
  14.736      1387
  14.766      1351
  14.796      1348
  14.827      1399
  14.857      1425
  14.887      1425
  14.917      1375
  14.948      1379
  14.978      1405
  15.008      1436
  15.038      1420
  15.069      1410
  15.099      1407
  15.129      1440
  15.159      1310
  15.190      1351
  15.220      1358
  15.250      1344
  15.280      1297
  15.311      1363
  15.341      1288
  15.371      1340
  15.402      1379
  15.432      1326
  15.462      1379
  15.492      1381
  15.523      1369
  15.553      1344
  15.583      1322
  15.613      1405
  15.644      1292
  15.674      1274
  15.704      1309
  15.734      1345
  15.765      1325
  15.795      1335
  15.825      1359
  15.855      1329
  15.886      1273
  15.916      1286
  15.946      1251
  15.976      1313
  16.007      1246
  16.037      1202
  16.067      1240
  16.097      1185
  16.128      1187
  16.158      1169
  16.188      1142
  16.218      1118
  16.249      1134
  16.279      1166
  16.309      1278
  16.339      1233
  16.370      1258
  16.400      1342
  16.430      1270
  16.460      1259
  16.491      1411
  16.521      1302
  16.551      1278
  16.581      1235
  16.612      1200
  16.642      1157
  16.672      1169
  16.702      1210
  16.733      1211
  16.763      1209
  16.793      1274
  16.823      1299
  16.854      1256
  16.884      1234
  16.914      1258
  16.944      1191
  16.975      1272
  17.005      1205
  17.035      1260
  17.066      1364
  17.096      1208
  17.126      1178
  17.156      1211
  17.187      1180
  17.217      1147
  17.247      1169
  17.277      1166
  17.308      1162
  17.338      1159
  17.368      1222
  17.398      1146
  17.429      1207
  17.459      1261
  17.489      1250
  17.519      1223
  17.550      1258
  17.580      1278
  17.610      1276
  17.640      1241
  17.671      1251
  17.701      1197
  17.731      1219
  17.761      1234
  17.792      1215
  17.822      1218
  17.852      1209
  17.882      1263
  17.913      1289
  17.943      1281
  17.973      1175
  18.003      1219
  18.034      1148
  18.064      1208
  18.094      1154
  18.124      1130
  18.155      1170
  18.185      1132
  18.215      1142
  18.245      1126
  18.276      1092
  18.306      1134
  18.336      1085
  18.366      1132
  18.397      1133
  18.427      1110
  18.457      1110
  18.487      1143
  18.518      1203
  18.548      1140
  18.578      1152
  18.609      1116
  18.639      1137
  18.669      1143
  18.699      1165
  18.730      1192
  18.760      1144
  18.790      1194
  18.820      1137
  18.851      1198
  18.881      1126
  18.911      1137
  18.941      1179
  18.972      1167
  19.002      1085
  19.032      1166
  19.062      1177
  19.093      1156
  19.123      1191
  19.153      1197
  19.183      1223
  19.214      1252
  19.244      1215
  19.274      1251
  19.304      1151
  19.335      1197
  19.365      1219
  19.395      1206
  19.425      1102
  19.456      1125
  19.486      1107
  19.516      1106
  19.546      1042
  19.577      1098
  19.607      1054
  19.637      1011
  19.667      1047
  19.698      1131
  19.728      1118
  19.758      1127
  19.788      1073
  19.819      1107
  19.849      1178
  19.879      1199
  19.909      1163
  19.940      1229
  19.970      1200
  20.000      1258
  20.030      1256
  20.061      1241
  20.091      1172
  20.121      1197
  20.151      1167
  20.182      1178
  20.212      1120
  20.242      1094
  20.273      1041
  20.303      1012
  20.333      1001
  20.363      1055
  20.394      1039
  20.424      1121
  20.454      1166
  20.484      1110
  20.515      1163
  20.545      1187
  20.575      1113
  20.605      1048
  20.636      1126
  20.666      1054
  20.696      1103
  20.726      1113
  20.757      1163
  20.787      1075
  20.817      1177
  20.847      1110
  20.878      1146
  20.908      1113
  20.938      1099
  20.968      1091
  20.999      1081
  21.029      1136
  21.059      1147
  21.089      1076
  21.120      1082
  21.150      1066
  21.180      1022
  21.210      1057
  21.241      1049
  21.271      1098
  21.301      1058
  21.331      1063
  21.362      1144
  21.392      1206
  21.422      1157
  21.452      1256
  21.483      1265
  21.513      1382
  21.543      1425
  21.573      1460
  21.604      1598
  21.634      1824
  21.664      1926
  21.694      2238
  21.725      2400
  21.755      2508
  21.785      2632
  21.815      2623
  21.846      2464
  21.876      2389
  21.906      2258
  21.937      2045
  21.967      1804
  21.997      1564
  22.027      1436
  22.058      1346
  22.088      1273
  22.118      1148
  22.148      1096
  22.179      1089
  22.209      1064
  22.239      1056
  22.269      1073
  22.300      1021
  22.330      1046
  22.360      1068
  22.390      1028
  22.421      1026
  22.451      1032
  22.481      1044
  22.511       976
  22.542       980
  22.572       993
  22.602       939
  22.632       918
  22.663       863
  22.693       933
  22.723       914
  22.753       964
  22.784       890
  22.814       905
  22.844       964
  22.874       906
  22.905       908
  22.935       969
  22.965       883
  22.995       977
  23.026       941
  23.056       979
  23.086       918
  23.116       941
  23.147       931
  23.177       839
  23.207       915
  23.237       856
  23.268       865
  23.298       828
  23.328       883
  23.358       848
  23.389       817
  23.419       856
  23.449       886
  23.480       933
  23.510       989
  23.540       940
  23.570       979
  23.601       912
  23.631       964
  23.661       942
  23.691       884
  23.722       921
  23.752       837
  23.782       888
  23.812       865
  23.843       815
  23.873       814
  23.903       795
  23.933       847
  23.964       860
  23.994       824
  24.024       832
  24.054       877
  24.085       861
  24.115       822
  24.145       867
  24.175       908
  24.206       943
  24.236       858
  24.266       871
  24.296       896
  24.327       822
  24.357       881
  24.387       870
  24.417       932
  24.448       894
  24.478       868
  24.508       846
  24.538       889
  24.569       870
  24.599       871
  24.629       833
  24.659       825
  24.690       783
  24.720       827
  24.750       753
  24.780       778
  24.811       765
  24.841       766
  24.871       733
  24.901       784
  24.932       782
  24.962       784
  24.992       759
  25.022       768
  25.053       746
  25.083       715
  25.113       717
  25.144       750
  25.174       759
  25.204       830
  25.234       783
  25.265       813
  25.295       800
  25.325       815
  25.355       759
  25.386       723
  25.416       771
  25.446       747
  25.476       723
  25.507       771
  25.537       683
  25.567       707
  25.597       687
  25.628       671
  25.658       716
  25.688       724
  25.718       739
  25.749       746
  25.779       704
  25.809       772
  25.839       735
  25.870       675
  25.900       716
  25.930       681
  25.960       712
  25.991       753
  26.021       772
  26.051       781
  26.081       728
  26.112       767
  26.142       728
  26.172       734
  26.202       687
  26.233       680
  26.263       763
  26.293       699
  26.323       695
  26.354       718
  26.384       721
  26.414       701
  26.444       699
  26.475       764
  26.505       729
  26.535       758
  26.565       700
  26.596       736
  26.626       707
  26.656       766
  26.686       713
  26.717       714
  26.747       711
  26.777       722
  26.807       680
  26.838       683
  26.868       673
  26.898       710
  26.928       664
  26.959       675
  26.989       649
  27.019       652
  27.049       653
  27.080       638
  27.110       637
  27.140       625
  27.170       612
  27.201       616
  27.231       603
  27.261       631
  27.291       619
  27.321       690
  27.352       607
  27.382       698
  27.412       651
  27.442       590
  27.473       618
  27.503       617
  27.533       677
  27.563       716
  27.594       680
  27.624       763
  27.654       816
  27.684       952
  27.714      1085
  27.745      1195
  27.775      1438
  27.805      1790
  27.835      2305
  27.866      2682
  27.896      3144
  27.926      3558
  27.956      3788
  27.986      3841
  28.017      3670
  28.047      3080
  28.077      2490
  28.107      1953
  28.137      1488
  28.168      1177
  28.198      1015
  28.228       846
  28.258       771
  28.289       725
  28.319       687
  28.349       681
  28.379       597
  28.409       613
  28.440       584
  28.470       584
  28.500       562
  28.530       567
  28.560       611
  28.591       578
  28.621       615
  28.651       571
  28.681       577
  28.711       590
  28.741       566
  28.772       593
  28.802       645
  28.832       606
  28.862       643
  28.892       598
  28.923       548
  28.953       693
  28.983       585
  29.013       583
  29.043       588
  29.073       621
  29.104       587
  29.134       538
  29.164       565
  29.194       575
  29.224       581
  29.254       506
  29.285       541
  29.315       522
  29.345       595
  29.375       538
  29.405       545
  29.435       567
  29.466       580
  29.496       598
  29.526       522
  29.556       533
  29.586       529
  29.616       536
  29.646       527
  29.677       559
  29.707       535
  29.737       558
  29.767       599
  29.797       554
  29.827       539
  29.857       601
  29.888       539
  29.918       588
  29.948       562
  29.978       537
  30.008       531
  30.038       518
  30.068       547
  30.098       524
  30.129       531
  30.159       480
  30.189       546
  30.219       563
  30.249       531
  30.279       557
  30.309       519
  30.339       513
  30.369       489
  30.400       539
  30.430       552
  30.460       506
  30.490       482
  30.520       516
  30.550       509
  30.580       521
  30.610       525
  30.640       470
  30.670       456
  30.700       465
  30.731       501
  30.761       463
  30.791       480
  30.821       479
  30.851       486
  30.881       431
  30.911       449
  30.941       492
  30.971       456
  31.001       466
  31.031       497
  31.061       461
  31.091       456
  31.121       450
  31.151       450
  31.181       492
  31.211       463
  31.242       466
  31.272       497
  31.302       507
  31.332       510
  31.362       474
  31.392       491
  31.422       472
  31.452       449
  31.482       479
  31.512       463
  31.542       447
  31.572       472
  31.602       428
  31.632       463
  31.662       487
  31.692       441
  31.722       492
  31.752       499
  31.782       499
  31.812       486
  31.842       486
  31.872       467
  31.902       476
  31.932       479
  31.962       468
  31.992       482
  32.022       441
  32.052       513
  32.082       497
  32.112       500
  32.142       450
  32.172       505
  32.202       479
  32.232       541
  32.261       499
  32.291       492
  32.321       427
  32.351       491
  32.381       460
  32.411       457
  32.441       454
  32.471       444
  32.501       452
  32.531       436
  32.561       422
  32.591       486
  32.621       442
  32.651       450
  32.681       462
  32.710       463
  32.740       458
  32.770       458
  32.800       443
  32.830       465
  32.860       448
  32.890       479
  32.920       441
  32.950       481
  32.980       439
  33.009       451
  33.039       441
  33.069       391
  33.099       421
  33.129       438
  33.159       417
  33.189       434
  33.219       421
  33.248       414
  33.278       417
  33.308       442
  33.338       468
  33.368       417
  33.398       396
  33.428       413
  33.457       364
  33.487       430
  33.517       457
  33.547       420
  33.577       396
  33.607       431
  33.636       423
  33.666       391
  33.696       398
  33.726       395
  33.756       427
  33.785       441
  33.815       390
  33.845       446
  33.875       421
  33.905       402
  33.934       432
  33.964       391
  33.994       414
  34.024       423
  34.053       394
  34.083       409
  34.113       398
  34.143       410
  34.173       387
  34.202       408
  34.232       434
  34.262       398
  34.292       407
  34.321       430
  34.351       434
  34.381       404
  34.410       405
  34.440       447
  34.470       434
  34.500       430
  34.529       411
  34.559       392
  34.589       386
  34.618       395
  34.648       408
  34.678       438
  34.708       440
  34.737       435
  34.767       378
  34.797       363
  34.826       416
  34.856       368
  34.886       407
  34.915       364
  34.945       384
  34.975       374
  35.004       384
  35.034       418
  35.064       405
  35.093       409
  35.123       391
  35.153       430
  35.182       402
  35.212       426
  35.241       422
  35.271       418
  35.301       432
  35.330       477
  35.360       451
  35.390       489
  35.419       536
  35.449       567
  35.478       585
  35.508       729
  35.537       815
  35.567      1023
  35.597      1203
  35.626      1713
  35.656      2135
  35.685      2529
  35.715      2838
  35.745      3233
  35.774      3366
  35.804      3192
  35.833      2839
  35.863      2414
  35.892      1894
  35.922      1512
  35.951      1156
  35.981       939
  36.011       876
  36.040       739
  36.070       695
  36.099       710
  36.129       653
  36.158       530
  36.188       532
  36.217       432
  36.247       452
  36.276       458
  36.306       432
  36.335       397
  36.365       384
  36.394       404
  36.424       380
  36.453       415
  36.483       406
  36.512       447
  36.542       484
  36.571       458
  36.601       458
  36.630       418
  36.660       425
  36.689       415
  36.719       427
  36.748       371
  36.778       386
  36.807       366
  36.837       354
  36.866       372
  36.896       359
  36.925       379
  36.955       373
  36.984       359
  37.014       350
  37.043       393
  37.073       389
  37.102       379
  37.132       364
  37.161       371
  37.190       382
  37.220       394
  37.249       396
  37.279       382
  37.308       391
  37.338       402
  37.367       358
  37.397       377
  37.426       371
  37.456       372
  37.485       371
  37.515       339
  37.544       314
  37.574       338
  37.603       373
  37.632       356
  37.662       330
  37.691       356
  37.721       343
  37.750       320
  37.780       341
  37.809       338
  37.839       321
  37.868       355
  37.898       347
  37.927       319
  37.956       330
  37.986       344
  38.015       331
  38.045       336
  38.074       327
  38.104       348
  38.133       304
  38.163       313
  38.192       324
  38.222       297
  38.251       320
  38.281       294
  38.310       315
  38.339       323
  38.369       320
  38.398       360
  38.428       315
  38.457       306
  38.487       307
  38.516       296
  38.546       340
  38.575       303
  38.605       266
  38.634       332
  38.663       303
  38.693       319
  38.722       294
  38.752       296
  38.781       315
  38.811       301
  38.840       348
  38.870       284
  38.899       350
  38.929       335
  38.958       303
  38.988       277
  39.017       323
  39.046       334
  39.076       323
  39.105       338
  39.135       311
  39.164       339
  39.194       327
  39.223       338
  39.253       335
  39.282       367
  39.312       366
  39.341       398
  39.370       428
  39.400       420
  39.429       424
  39.459       484
  39.488       508
  39.518       474
  39.547       499
  39.577       507
  39.606       485
  39.636       499
  39.665       554
  39.695       548
  39.724       629
  39.753       715
  39.783       722
  39.812       921
  39.842       952
  39.871      1055
  39.901      1104
  39.930      1118
  39.960      1153
  39.989      1020
  40.019       969
  40.048       775
  40.078       711
  40.107       624
  40.136       525
  40.166       448
  40.195       402
  40.225       341
  40.254       354
  40.284       323
  40.313       300
  40.343       342
  40.372       290
  40.402       320
  40.431       331
  40.461       294
  40.490       274
  40.520       284
  40.549       315
  40.578       272
  40.608       313
  40.637       287
  40.667       281
  40.696       301
  40.726       304
  40.755       301
  40.785       255
  40.814       313
  40.844       308
  40.873       292
  40.903       299
  40.932       287
  40.962       292
  40.991       293
  41.021       300
  41.050       311
  41.079       324
  41.109       287
  41.138       304
  41.168       287
  41.197       332
  41.227       323
  41.256       292
  41.286       344
  41.315       316
  41.345       314
  41.374       319
  41.404       331
  41.433       305
  41.463       314
  41.492       308
  41.522       319
  41.551       314
  41.581       299
  41.610       323
  41.640       291
  41.669       314
  41.699       331
  41.728       322
  41.758       336
  41.787       354
  41.816       351
  41.846       335
  41.875       369
  41.905       386
  41.934       370
  41.964       401
  41.993       404
  42.023       369
  42.052       378
  42.082       454
  42.111       495
  42.141       531
  42.170       498
  42.200       593
  42.229       694
  42.259       774
  42.288       931
  42.318      1096
  42.347      1290
  42.377      1680
  42.406      2082
  42.436      2496
  42.465      3003
  42.495      3443
  42.524      3652
  42.554      3900
  42.583      3410
  42.613      3067
  42.642      2455
  42.672      1927
  42.701      1482
  42.731      1143
  42.760       920
  42.790       757
  42.819       675
  42.849       551
  42.878       569
  42.908       559
  42.937       517
  42.967       490
  42.996       489
  43.026       420
  43.055       419
  43.085       394
  43.114       400
  43.144       386
  43.173       449
  43.203       414
  43.232       427
  43.262       403
  43.291       408
  43.321       355
  43.350       439
  43.380       369
  43.409       410
  43.439       417
  43.468       374
  43.498       386
  43.528       360
  43.557       341
  43.587       358
  43.616       383
  43.646       379
  43.675       349
  43.705       362
  43.734       393
  43.764       358
  43.793       339
  43.823       338
  43.852       403
  43.882       353
  43.911       344
  43.941       357
  43.970       388
  44.000       358
  44.029       388
  44.059       377
  44.089       421
  44.118       417
  44.148       439
  44.177       463
  44.207       527
  44.236       613
  44.266       721
  44.295       842
  44.325       967
  44.354      1176
  44.384      1459
  44.413      1748
  44.443      2089
  44.473      2371
  44.502      2538
  44.532      2533
  44.561      2505
  44.591      2252
  44.620      1894
  44.650      1592
  44.679      1257
  44.709       984
  44.738       758
  44.768       656
  44.798       533
  44.827       470
  44.857       495
  44.886       385
  44.916       396
  44.945       347
  44.975       311
  45.004       337
  45.034       263
  45.064       294
  45.093       299
  45.123       325
  45.152       281
  45.182       289
  45.211       295
  45.241       286
  45.271       270
  45.300       275
  45.330       259
  45.359       289
  45.389       272
  45.418       256
  45.448       256
  45.478       284
  45.507       260
  45.537       238
  45.566       274
  45.596       229
  45.626       255
  45.655       258
  45.685       232
  45.714       217
  45.744       234
  45.773       241
  45.803       231
  45.833       239
  45.862       244
  45.892       229
  45.921       206
  45.951       261
  45.981       208
  46.010       242
  46.040       256
  46.069       218
  46.099       228
  46.129       256
  46.158       213
  46.188       245
  46.217       230
  46.247       240
  46.277       208
  46.306       233
  46.336       242
  46.365       216
  46.395       244
  46.425       209
  46.454       199
  46.484       223
  46.513       209
  46.543       256
  46.573       231
  46.602       213
  46.632       212
  46.662       232
  46.691       229
  46.721       232
  46.750       231
  46.780       194
  46.810       228
  46.839       236
  46.869       222
  46.899       210
  46.928       258
  46.958       213
  46.987       190
  47.017       188
  47.047       219
  47.076       212
  47.106       198
  47.136       224
  47.165       207
  47.195       213
  47.225       219
  47.254       211
  47.284       223
  47.314       209
  47.343       222
  47.373       210
  47.402       210
  47.432       206
  47.462       173
  47.491       205
  47.521       217
  47.551       217
  47.580       214
  47.610       205
  47.640       216
  47.669       182
  47.699       194
  47.729       214
  47.758       223
  47.788       223
  47.818       236
  47.847       239
  47.877       200
  47.907       221
  47.936       197
  47.966       227
  47.996       241
  48.026       245
  48.055       221
  48.085       218
  48.115       206
  48.144       202
  48.174       221
  48.204       244
  48.233       226
  48.263       228
  48.293       223
  48.322       218
  48.352       206
  48.382       210
  48.412       198
  48.441       220
  48.471       213
  48.501       207
  48.530       212
  48.560       199
  48.590       230
  48.619       213
  48.649       194
  48.679       189
  48.709       207
  48.738       216
  48.768       216
  48.798       203
  48.827       235
  48.857       223
  48.887       207
  48.917       190
  48.946       188
  48.976       235
  49.006       232
  49.036       207
  49.065       239
  49.095       232
  49.125       208
  49.155       219
  49.184       205
  49.214       227
  49.244       223
  49.274       204
  49.303       206
  49.333       202
  49.363       212
  49.393       241
  49.422       225
  49.452       199
  49.482       210
  49.512       218
  49.541       205
  49.571       172
  49.601       159
  49.631       210
  49.660       204
  49.690       186
  49.720       210
  49.750       185
  49.779       193
  49.809       188
  49.839       184
  49.869       209
  49.899       228
  49.928       189
  49.958       218
  49.988       181
  50.018       186
  50.048       220
  50.077       205
  50.107       182
  50.137       209
  50.167       217
  50.196       175
  50.226       191
  50.256       229
  50.286       206
  50.316       205
  50.346       198
  50.375       190
  50.405       210
  50.435       203
  50.465       216
  50.495       197
  50.524       208
  50.554       197
  50.584       199
  50.614       203
  50.644       186
  50.674       211
  50.703       179
  50.733       224
  50.763       198
  50.793       195
  50.823       196
  50.853       196
  50.882       197
  50.912       207
  50.942       212
  50.972       211
  51.002       210
  51.032       234
  51.061       216
  51.091       229
  51.121       188
  51.151       206
  51.181       212
  51.211       197
  51.241       229
  51.270       237
  51.300       202
  51.330       228
  51.360       236
  51.390       233
  51.420       249
  51.450       231
  51.480       265
  51.509       262
  51.539       262
  51.569       257
  51.599       275
  51.629       327
  51.659       355
  51.689       397
  51.719       406
  51.749       463
  51.778       577
  51.808       600
  51.838       605
  51.868       665
  51.898       650
  51.928       573
  51.958       508
  51.988       472
  52.018       431
  52.048       414
  52.078       397
  52.108       351
  52.137       314
  52.167       270
  52.197       274
  52.227       219
  52.257       257
  52.287       225
  52.317       256
  52.347       222
  52.377       223
  52.407       224
  52.437       207
  52.467       227
  52.497       199
  52.527       193
  52.557       218
  52.587       238
  52.617       225
  52.646       199
  52.676       164
  52.706       168
  52.736       189
  52.766       198
  52.796       177
  52.826       186
  52.856       173
  52.886       180
  52.916       194
  52.946       209
  52.976       195
  53.006       209
  53.036       185
  53.066       174
  53.096       206
  53.126       193
  53.156       221
  53.186       183
  53.216       212
  53.246       199
  53.276       195
  53.306       211
  53.336       169
  53.366       178
  53.396       195
  53.426       164
  53.456       184
  53.486       160
  53.516       186
  53.546       192
  53.576       172
  53.606       206
  53.636       194
  53.666       208
  53.696       182
  53.726       197
  53.756       200
  53.786       212
  53.816       185
  53.846       176
  53.876       206
  53.906       190
  53.936       228
  53.966       196
  53.996       178
  54.026       198
  54.056       226
  54.086       207
  54.116       214
  54.146       204
  54.176       207
  54.206       261
  54.236       221
  54.266       256
  54.296       284
  54.326       278
  54.356       350
  54.386       404
  54.416       458
  54.446       523
  54.476       716
  54.506       926
  54.536      1148
  54.566      1429
  54.596      1645
  54.626      1832
  54.656      1985
  54.686      2004
  54.716      1807
  54.746      1642
  54.776      1369
  54.806      1054
  54.836       879
  54.866       643
  54.896       468
  54.926       377
  54.956       311
  54.986       280
  55.016       241
  55.046       250
  55.076       247
  55.106       236
  55.136       220
  55.166       237
  55.196       205
  55.226       220
  55.256       208
  55.286       189
  55.316       187
  55.346       187
  55.376       215
  55.406       195
  55.436       198
  55.466       221
  55.496       215
  55.526       186
  55.556       165
  55.586       174
  55.616       183
  55.646       191
  55.676       181
  55.706       206
  55.736       182
  55.766       209
  55.796       188
  55.826       185
  55.856       178
  55.886       169
  55.916       185
  55.946       181
  55.976       179
  56.005       181
  56.035       163
  56.065       178
  56.095       175
  56.125       178
  56.155       210
  56.185       178
  56.215       168
  56.245       205
  56.275       191
  56.305       195
  56.335       165
  56.365       180
  56.394       201
  56.424       208
  56.454       203
  56.484       207
  56.514       214
  56.544       229
  56.574       212
  56.604       228
  56.634       232
  56.663       266
  56.693       292
  56.723       288
  56.753       334
  56.783       343
  56.813       371
  56.843       373
  56.872       449
  56.902       446
  56.932       484
  56.962       446
  56.992       413
  57.022       409
  57.052       356
  57.081       334
  57.111       299
  57.141       259
  57.171       265
  57.201       240
  57.230       220
  57.260       245
  57.290       228
  57.320       215
  57.350       233
  57.379       248
  57.409       203
  57.439       244
  57.469       240
  57.499       277
  57.528       299
  57.558       355
  57.588       431
  57.618       453
  57.647       496
  57.677       510
  57.707       523
  57.737       514
  57.766       490
  57.796       491
  57.826       428
  57.856       356
  57.885       292
  57.915       269
  57.945       233
  57.975       213
  58.004       184
  58.034       178
  58.064       163
  58.094       195
  58.123       158
  58.153       196
  58.183       184
  58.213       181
  58.242       186
  58.272       158
  58.302       185
  58.332       197
  58.362       187
  58.392       196
  58.421       193
  58.451       169
  58.481       179
  58.511       175
  58.541       185
  58.571       194
  58.601       140
  58.631       172
  58.661       170
  58.691       159
  58.721       198
  58.751       165
  58.781       183
  58.811       194
  58.841       190
  58.871       184
  58.901       168
  58.931       189
  58.961       163
  58.991       176
  59.021       164
  59.051       154
  59.081       165
  59.112       192
  59.142       193
  59.172       180
  59.202       168
  59.233       161
  59.263       144
  59.293       189
  59.324       176
  59.354       158
  59.384       182
  59.415       180
  59.445       175
  59.476       157
  59.506       147
  59.537       149
  59.567       162
  59.598       183
  59.628       167
  59.659       155
  59.690       160
  59.720       172
  59.751       171
  59.782       166
  59.813       193
  59.843       167
  59.874       145
  59.905       151
  59.936       166
  59.967       193
  59.998       178
  60.029       195
  60.060       196
  60.091       161
  60.122       173
  60.153       158
  60.184       163
  60.215       194
  60.246       179
  60.277       184
  60.308       160
  60.339       165
  60.370       150
  60.401       196
  60.432       171
  60.463       174
  60.495       181
  60.526       172
  60.557       192
  60.588       162
  60.619       175
  60.650       186
  60.681       179
  60.712       187
  60.744       180
  60.775       165
  60.806       153
  60.837       163
  60.868       183
  60.899       191
  60.930       177
  60.961       179
  60.992       214
  61.023       195
  61.054       192
  61.085       184
  61.116       189
  61.147       195
  61.178       218
  61.209       238
  61.240       292
  61.271       289
  61.302       333
  61.332       364
  61.363       363
  61.394       377
  61.425       366
  61.455       406
  61.486       366
  61.517       318
  61.547       250
  61.578       269
  61.609       239
  61.639       233
  61.670       205
  61.700       203
  61.731       198
  61.761       199
  61.792       211
  61.822       218
  61.852       199
  61.883       201
  61.913       206
  61.943       217
  61.974       207
  62.004       212
  62.034       214
  62.065       199
  62.095       221
  62.125       211
  62.155       200
  62.185       207
  62.216       221
  62.246       219
  62.276       210
  62.306       214
  62.336       198
  62.366       233
  62.396       196
  62.426       210
  62.456       221
  62.486       204
  62.516       188
  62.546       212
  62.576       199
  62.606       202
  62.636       193
  62.666       184
  62.696       207
  62.725       179
  62.755       206
  62.785       196
  62.815       218
  62.845       197
  62.874       198
  62.904       214
  62.934       218
  62.964       242
  62.993       216
  63.023       204
  63.053       215
  63.082       192
  63.112       207
  63.142       195
  63.171       180
  63.201       154
  63.231       179
  63.260       177
  63.290       191
  63.319       198
  63.349       185
  63.379       159
  63.408       184
  63.438       142
  63.467       193
  63.497       178
  63.526       190
  63.556       186
  63.585       170
  63.615       150
  63.644       172
  63.674       164
  63.703       155
  63.733       172
  63.762       179
  63.792       167
  63.821       190
  63.850       151
  63.880       179
  63.909       174
  63.939       153
  63.968       176
  63.997       160
  64.027       177
  64.056       171
  64.085       193
  64.115       173
  64.144       183
  64.174       160
  64.203       185
  64.232       186
  64.262       159
  64.291       191
  64.320       192
  64.350       185
  64.379       152
  64.408       192
  64.438       186
  64.467       182
  64.496       196
  64.526       223
  64.555       234
  64.584       235
  64.613       211
  64.643       231
  64.672       214
  64.701       230
  64.731       242
  64.760       274
  64.789       273
  64.819       274
  64.848       262
  64.877       245
  64.907       264
  64.936       242
  64.965       250
  64.994       235
  65.024       278
  65.053       266
  65.082       278
  65.112       286
  65.141       329
  65.170       359
  65.200       376
  65.229       433
  65.258       514
  65.288       535
  65.317       540
  65.346       554
  65.376       540
  65.405       495
  65.434       428
  65.464       369
  65.493       353
  65.523       297
  65.552       277
  65.581       240
  65.611       215
  65.640       207
  65.670       208
  65.699       170
  65.728       181
  65.758       193
  65.787       171
  65.817       173
  65.846       181
  65.876       173
  65.905       187
  65.935       203
  65.964       200
  65.993       182
  66.023       162
  66.052       168
  66.082       161
  66.112       166
  66.141       185
  66.171       199
  66.200       188
  66.230       176
  66.259       199
  66.289       190
  66.319       169
  66.348       170
  66.378       171
  66.407       182
  66.437       184
  66.467       200
  66.496       188
  66.526       188
  66.556       176
  66.586       167
  66.615       173
  66.645       182
  66.675       201
  66.705       186
  66.734       175
  66.764       184
  66.794       158
  66.824       187
  66.854       167
  66.883       172
  66.913       184
  66.943       157
  66.973       150
  67.003       174
  67.033       151
  67.063       158
  67.093       161
  67.123       162
  67.153       171
  67.183       165
  67.213       160
  67.243       164
  67.273       164
  67.303       171
  67.333       168
  67.363       185
  67.393       195
  67.423       163
  67.453       167
  67.483       170
  67.513       182
  67.543       194
  67.573       191
  67.604       163
  67.634       186
  67.664       168
  67.694       168
  67.724       175
  67.754       182
  67.785       166
  67.815       174
  67.845       151
  67.875       191
  67.906       173
  67.936       172
  67.966       158
  67.996       166
  68.027       149
  68.057       162
  68.087       180
  68.118       185
  68.148       172
  68.178       199
  68.209       191
  68.239       201
  68.270       207
  68.300       205
  68.330       194
  68.361       237
  68.391       234
  68.422       263
  68.452       268
  68.483       303
  68.513       381
  68.544       397
  68.574       470
  68.605       488
  68.635       584
  68.666       577
  68.696       607
  68.727       550
  68.757       623
  68.788       575
  68.818       538
  68.849       468
  68.879       478
  68.910       423
  68.941       429
  68.971       471
  69.002       499
  69.032       529
  69.063       572
  69.094       667
  69.124       718
  69.155       762
  69.185       832
  69.216       834
  69.247       804
  69.277       773
  69.308       718
  69.338       616
  69.369       610
  69.400       551
  69.430       506
  69.461       458
  69.492       428
  69.522       436
  69.553       426
  69.583       404
  69.614       434
  69.645       488
  69.675       491
  69.706       555
  69.737       563
  69.767       568
  69.798       571
  69.828       510
  69.859       483
  69.890       435
  69.920       418
  69.951       346
  69.982       326
  70.012       263
  70.043       272
  70.073       260
  70.104       229
  70.135       203
  70.165       230
  70.196       200
  70.226       188
  70.257       184
  70.287       216
  70.318       179
  70.349       187
  70.379       177
  70.410       177
  70.440       160
  70.471       177
  70.501       149
  70.532       163
  70.562       177
  70.593       156
  70.623       173
  70.654       176
  70.684       153
  70.715       164
  70.745       168
  70.776       156
  70.806       148
  70.837       167
  70.867       156
  70.898       155
  70.928       179
  70.958       169
  70.989       153
  71.019       184
  71.050       147
  71.080       167
  71.110       149
  71.141       164
  71.171       172
  71.202       163
  71.232       173
  71.262       161
  71.293       166
  71.323       195
  71.353       195
  71.384       189
  71.414       207
  71.444       186
  71.475       174
  71.505       215
  71.535       196
  71.566       196
  71.596       181
  71.626       166
  71.657       178
  71.687       182
  71.717       194
  71.747       191
  71.778       192
  71.808       197
  71.838       182
  71.869       191
  71.899       202
  71.929       183
  71.959       192
  71.989       162
  72.020       182
  72.050       190
  72.080       167
  72.110       156
  72.141       171
  72.171       162
  72.201       152
  72.231       153
  72.261       158
  72.291       156
  72.322       164
  72.352       175
  72.382       146
  72.412       168
  72.442       153
  72.472       156
  72.503       150
  72.533       177
  72.563       145
  72.593       151
  72.623       177
  72.653       161
  72.683       162
  72.713       172
  72.743       173
  72.773       167
  72.804       189
  72.834       161
  72.864       155
  72.894       172
  72.924       174
  72.954       153
  72.984       194
  73.014       146
  73.044       177
  73.074       161
  73.104       170
  73.134       151
  73.164       169
  73.194       173
  73.224       169
  73.254       171
  73.284       170
  73.314       187
  73.344       166
  73.374       196
  73.404       162
  73.434       163
  73.464       169
  73.494       152
  73.524       156
  73.554       166
  73.584       144
  73.614       194
  73.644       169
  73.674       151
  73.704       171
  73.734       164
  73.764       164
  73.793       176
  73.823       177
  73.853       165
  73.883       130
  73.913       148
  73.943       212
  73.973       164
  74.003       181
  74.033       201
  74.063       154
  74.092       153
  74.122       162
  74.152       155
  74.182       185
  74.212       178
  74.242       174
  74.272       159
  74.301       168
  74.331       176
  74.361       157
  74.391       180
  74.421       150
  74.451       191
  74.480       177
  74.510       180
  74.540       160
  74.570       187
  74.600       190
  74.629       179
  74.659       189
  74.689       181
  74.719       189
  74.749       178
  74.779       185
  74.809       175
  74.838       186
  74.868       182
  74.898       174
  74.928       164
  74.958       186
  74.988       189
  75.018       176
  75.048       161
  75.078       150
  75.108       192
  75.138       201
  75.168       176
  75.198       210
  75.228       169
  75.258       217
  75.288       205
  75.318       224
  75.348       206
  75.378       234
  75.409       223
  75.439       254
  75.469       260
  75.499       267
  75.530       326
  75.560       386
  75.590       395
  75.620       424
  75.651       415
  75.681       468
  75.712       434
  75.742       401
  75.773       387
  75.803       355
  75.834       343
  75.864       346
  75.895       309
  75.926       297
  75.956       313
  75.987       321
  76.018       313
  76.049       317
  76.079       368
  76.110       412
  76.141       471
  76.172       502
  76.203       577
  76.234       627
  76.265       651
  76.296       750
  76.328       780
  76.359       815
  76.390       749
  76.421       660
  76.453       678
  76.484       532
  76.516       486
  76.547       469
  76.579       369
  76.610       359
  76.642       324
  76.674       314
  76.705       291
  76.737       264
  76.769       224
  76.801       249
  76.833       232
  76.865       222
  76.897       211
  76.929       196
  76.961       188
  76.994       193
  77.026       194
  77.058       216
  77.090       186
  77.123       190
  77.155       192
  77.187       163
  77.219       175
  77.251       170
  77.283       178
  77.315       157
  77.347       149
  77.379       186
  77.411       177
  77.443       199
  77.474       162
  77.506       193
  77.538       167
  77.569       178
  77.601       179
  77.632       171
  77.664       156
  77.695       191
  77.726       149
  77.758       183
  77.789       176
  77.820       189
  77.851       180
  77.882       169
  77.913       180
  77.944       160
  77.975       177
  78.006       158
  78.037       185
  78.068       166
  78.099       167
  78.129       185
  78.160       183
  78.191       164
  78.221       171
  78.252       170
  78.282       168
  78.313       175
  78.343       179
  78.374       174
  78.404       172
  78.435       168
  78.465       155
  78.495       169
  78.526       177
  78.556       145
  78.586       168
  78.616       210
  78.646       181
  78.677       147
  78.707       160
  78.737       177
  78.767       169
  78.797       177
  78.827       163
  78.857       168
  78.887       172
  78.916       162
  78.946       182
  78.976       145
  79.006       171
  79.036       170
  79.066       160
  79.095       157
  79.125       163
  79.155       144
  79.184       173
  79.214       167
  79.244       184
  79.273       180
  79.303       176
  79.333       171
  79.362       165
  79.392       170
  79.421       138
  79.451       164
  79.480       169
  79.510       145
  79.539       163
  79.569       186
  79.598       184
  79.628       176
  79.657       167
  79.687       150
  79.716       157
  79.745       142
  79.775       146
  79.804       151
  79.834       176
  79.863       178
  79.892       162
  79.922       143
  79.951       164
  79.980       166
  80.010       186
  80.039       171
  80.068       180
  80.098       188
  80.127       181
  80.156       174
  80.186       161
  80.215       197
  80.244       193
  80.274       198
  80.303       218
  80.332       249
  80.362       250
  80.391       279
  80.420       245
  80.449       257
  80.479       310
  80.508       314
  80.538       336
  80.567       337
  80.596       322
  80.626       327
  80.655       309
  80.684       292
  80.714       257
  80.743       247
  80.773       235
  80.802       241
  80.831       191
  80.861       182
  80.890       189
  80.920       183
  80.949       174
  80.979       158
  81.008       148
  81.038       151
  81.067       165
  81.097       196
  81.126       183
  81.156       177
  81.185       154
  81.215       159
  81.244       164
  81.274       153
  81.304       137
  81.333       172
  81.363       158
  81.392       152
  81.422       165
  81.452       148
  81.481       141
  81.511       142
  81.541       160
  81.570       144
  81.600       150
  81.630       153
  81.660       162
  81.689       141
  81.719       147
  81.749       137
  81.779       164
  81.808       147
  81.838       155
  81.868       153
  81.898       147
  81.928       159
  81.958       159
  81.987       145
  82.017       153
  82.047       156
  82.077       158
  82.107       167
  82.137       157
  82.167       144
  82.197       150
  82.227       149
  82.257       147
  82.287       128
  82.317       158
  82.347       142
  82.377       162
  82.407       143
  82.437       147
  82.467       144
  82.497       139
  82.528       135
  82.558       149
  82.588       162
  82.618       179
  82.648       151
  82.679       146
  82.709       170
  82.739       140
  82.769       159
  82.800       136
  82.830       162
  82.860       165
  82.891       146
  82.921       155
  82.951       133
  82.982       162
  83.012       149
  83.043       154
  83.073       194
  83.103       204
  83.134       235
  83.164       211
  83.195       220
  83.225       255
  83.256       274
  83.287       289
  83.317       379
  83.348       397
  83.378       443
  83.409       484
  83.440       500
  83.470       482
  83.501       484
  83.532       428
  83.563       410
  83.593       368
  83.624       278
  83.655       284
  83.686       258
  83.717       206
  83.748       216
  83.778       203
  83.809       204
  83.840       165
  83.871       154
  83.902       160
  83.933       175
  83.964       153
  83.995       148
  84.026       134
  84.057       152
  84.088       146
  84.120       170
  84.151       134
  84.182       159
  84.213       145
  84.244       139
  84.276       146
  84.307       145
  84.338       169
  84.369       124
  84.401       164
  84.432       128
  84.463       148
  84.495       144
  84.526       132
  84.558       118
  84.589       144
  84.620       140
  84.652       128
  84.683       142
  84.715       144
  84.746       138
  84.778       148
  84.809       158
  84.841       139
  84.872       143
  84.904       142
  84.935       145
  84.967       164
  84.998       173
  85.030       152
  85.061       149
  85.093       172
  85.124       142
  85.156       149
  85.187       145
  85.219       164
  85.250       156
  85.282       147
  85.313       149
  85.345       145
  85.376       141
  85.408       136
  85.439       143
  85.470       158
  85.502       153
  85.533       145
  85.564       130
  85.596       145
  85.627       133
  85.658       152
  85.689       120
  85.721       146
  85.752       141
  85.783       129
  85.814       155
  85.845       141
  85.876       173
  85.907       146
  85.938       143
  85.969       158
  86.000       164
  86.031       188
  86.061       199
  86.092       195
  86.123       204
  86.154       194
  86.184       198
  86.215       196
  86.245       169
  86.276       195
  86.306       155
  86.337       179
  86.367       197
  86.397       138
  86.428       156
  86.458       144
  86.488       141
  86.518       143
  86.548       145
  86.578       135
  86.608       121
  86.638       119
  86.667       141
  86.697       113
  86.727       130
  86.756       126
  86.786       119
  86.816       113
  86.845       129
  86.874       138
  86.904       141
  86.933       126
  86.963       132
  86.992       145
  87.021       135
  87.050       136
  87.079       118
  87.109       126
  87.138       126
  87.167       140
  87.196       128
  87.225       123
  87.254       142
  87.283       135
  87.312       147
  87.340       136
  87.369       125
  87.398       154
  87.427       146
  87.456       127
  87.484       152
  87.513       176
  87.542       152
  87.571       147
  87.599       151
  87.628       135
  87.657       158
  87.685       152
  87.714       109
  87.743       142
  87.771       138
  87.800       146
  87.829       128
  87.857       142
  87.886       160
  87.915       135
  87.943       133
  87.972       109
  88.000       123
  88.029       140
  88.058       120
  88.086       155
  88.115       165
  88.144       138
  88.172       136
  88.201       158
  88.230       128
  88.258       171
  88.287       124
  88.316       129
  88.344       119
  88.373       116
  88.402       135
  88.431       131
  88.460       111
  88.488       158
  88.517       133
  88.546       142
  88.575       134
  88.604       141
  88.633       111
  88.662       124
  88.691       142
  88.720       144
  88.749       137
  88.778       138
  88.807       152
  88.836       158
  88.866       145
  88.895       159
  88.924       197
  88.954       187
  88.983       199
  89.012       245
  89.042       217
  89.071       298
  89.101       273
  89.131       275
  89.160       296
  89.190       274
  89.220       274
  89.249       238
  89.279       223
  89.309       237
  89.339       210
  89.369       207
  89.399       183
  89.429       169
  89.459       160
  89.489       153
  89.519       145
  89.549       157
  89.579       127
  89.609       138
  89.639       145
  89.669       130
  89.700       145
  89.730       121
  89.760       125
  89.791       105
  89.821       112
  89.851       116
  89.882       129
  89.912       118
  89.942       122
  89.973       133
  90.003       141
  90.034       128
  90.064       132
  90.095       125
  90.125       117
  90.156       131
  90.187       125
  90.217       162
  90.248       139
  90.278       116
  90.309       138
  90.340       127
  90.370       146
  90.401       121
  90.432       118
  90.462       164
  90.493       123
  90.524       162
  90.554       145
  90.585       148
  90.616       161
  90.647       144
  90.677       150
  90.708       141
  90.739       168
  90.769       126
  90.800       149
  90.831       119
  90.862       156
  90.892       165
  90.923       154
  90.954       130
  90.985       150
  91.015       163
  91.046       155
  91.077       174
  91.107       170
  91.138       156
  91.169       200
  91.199       170
  91.230       188
  91.261       203
  91.291       200
  91.322       249
  91.353       213
  91.383       243
  91.414       248
  91.445       317
  91.475       287
  91.506       282
  91.536       339
  91.567       298
  91.598       311
  91.628       297
  91.659       302
  91.689       272
  91.720       263
  91.750       253
  91.781       219
  91.811       234
  91.842       208
  91.872       173
  91.903       186
  91.933       160
  91.964       179
  91.994       205
  92.025       157
  92.055       189
  92.085       202
  92.116       179
  92.146       183
  92.177       168
  92.207       193
  92.238       166
  92.268       177
  92.298       179
  92.329       186
  92.359       204
  92.389       186
  92.420       201
  92.450       235
  92.481       230
  92.511       250
  92.541       294
  92.571       271
  92.602       312
  92.632       378
  92.662       371
  92.693       461
  92.723       445
  92.753       525
  92.784       553
  92.814       592
  92.844       584
  92.874       591
  92.905       632
  92.935       618
  92.965       584
  92.995       495
  93.025       505
  93.056       469
  93.086       419
  93.116       418
  93.146       380
  93.176       339
  93.207       297
  93.237       250
  93.267       246
  93.297       241
  93.327       240
  93.357       174
  93.387       192
  93.418       190
  93.448       176
  93.478       186
  93.508       202
  93.538       171
  93.568       176
  93.598       166
  93.628       174
  93.658       138
  93.688       172
  93.719       168
  93.749       142
  93.779       134
  93.809       145
  93.839       146
  93.869       148
  93.899       157
  93.929       142
  93.959       141
  93.989       152
  94.019       150
  94.049       136
  94.079       134
  94.109       126
  94.139       149
  94.169       141
  94.199       137
  94.229       128
  94.259       135
  94.289       148
  94.319       135
  94.349       108
  94.379       146
  94.409       152
  94.438       125
  94.468       138
  94.498       133
  94.528       128
  94.558       122
  94.588       155
  94.618       127
  94.648       118
  94.678       135
  94.708       149
  94.738       125
  94.767       144
  94.797       142
  94.827       134
  94.857       158
  94.887       140
  94.917       150
  94.947       147
  94.976       168
  95.006       155
  95.036       155
  95.066       135
  95.096       145
  95.126       145
  95.155       124
  95.185       134
  95.215       148
  95.245       158
  95.275       155
  95.305       145
  95.334       143
  95.364       169
  95.394       157
  95.424       176
  95.454       175
  95.483       192
  95.513       225
  95.543       210
  95.573       234
  95.602       222
  95.632       253
  95.662       293
  95.692       329
  95.722       358
  95.751       331
  95.781       354
  95.811       356
  95.841       384
  95.870       383
  95.900       361
  95.930       299
  95.960       302
  95.990       282
  96.019       251
  96.049       253
  96.079       254
  96.109       221
  96.138       220
  96.168       206
  96.198       172
  96.228       184
  96.258       197
  96.288       190
  96.317       172
  96.347       160
  96.377       175
  96.407       191
  96.437       193
  96.467       174
  96.496       245
  96.526       229
  96.556       224
  96.586       238
  96.616       276
  96.646       276
  96.676       311
  96.706       333
  96.735       312
  96.765       338
  96.795       326
  96.825       345
  96.855       318
  96.885       317
  96.915       268
  96.945       309
  96.975       252
  97.005       228
  97.035       222
  97.065       198
  97.095       208
  97.125       196
  97.155       180
  97.185       178
  97.215       211
  97.245       176
  97.276       160
  97.306       166
  97.336       163
  97.366       149
  97.396       153
  97.426       152
  97.457       168
  97.487       162
  97.517       143
  97.547       150
  97.577       157
  97.608       168
  97.638       133
  97.668       140
  97.699       150
  97.729       140
  97.759       139
  97.790       134
  97.820       130
  97.850       133
  97.881       155
  97.911       142
  97.942       143
  97.972       147
  98.003       156
  98.033       147
  98.064       166
  98.094       160
  98.125       166
  98.155       173
  98.186       178
  98.217       217
  98.247       209
  98.278       214
  98.309       199
  98.339       196
  98.370       209
  98.401       231
  98.432       216
  98.462       203
  98.493       189
  98.524       187
  98.555       167
  98.586       193
  98.617       149
  98.648       220
  98.679       166
  98.709       153
  98.740       178
  98.771       149
  98.802       175
  98.833       174
  98.865       148
  98.896       145
  98.927       164
  98.958       169
  98.989       164
  99.020       194
  99.051       181
  99.082       191
  99.113       217
  99.145       174
  99.176       213
  99.207       230
  99.238       208
  99.269       225
  99.301       224
  99.332       220
  99.363       233
  99.394       247
  99.426       223
  99.457       228
  99.488       222
  99.520       199
  99.551       218
  99.582       170
  99.613       186
  99.645       179
  99.676       159
  99.707       170
  99.739       150
  99.770       151
  99.801       156
  99.833       157
  99.864       134
  99.895       139
  99.927       151
  99.958       155
  99.990       154
 100.021       131
 100.052       153
 100.084       135
 100.115       148
 100.146       148
 100.178       163
 100.209       152
 100.240       138
 100.272       145
 100.303       132
 100.335       133
 100.366       131
 100.397       147
 100.429       141
 100.460       131
 100.491       140
 100.523       122
 100.554       140
 100.585       137
 100.616       134
 100.648       125
 100.679       124
 100.710       143
 100.742       123
 100.773       137
 100.804       129
 100.835       125
 100.867       129
 100.898       146
 100.929       115
 100.960       131
 100.992       126
 101.023       132
 101.054       142
 101.085       135
 101.116       144
 101.147       129
 101.178       140
 101.210       143
 101.241       150
 101.272       128
 101.303       140
 101.334       154
 101.365       129
 101.396       117
 101.427       151
 101.458       168
 101.489       145
 101.520       154
 101.551       155
 101.582       131
 101.613       132
 101.644       125
 101.674       109
 101.705       143
 101.736       148
 101.767       129
 101.798       151
 101.829       149
 101.859       122
 101.890       152
 101.921       161
 101.952       162
 101.982       121
 102.013       144
 102.044       176
 102.074       159
 102.105       170
 102.136       174
 102.166       174
 102.197       150
 102.227       186
 102.258       162
 102.288       148
 102.319       188
 102.349       191
 102.380       174
 102.410       187
 102.441       189
 102.471       196
 102.501       227
 102.532       204
 102.562       235
 102.593       207
 102.623       179
 102.653       222
 102.683       190
 102.714       249
 102.744       192
 102.774       205
 102.804       177
 102.834       193
 102.864       198
 102.894       198
 102.925       195
 102.955       196
 102.985       212
 103.015       236
 103.045       239
 103.075       260
 103.104       273
 103.134       252
 103.164       238
 103.194       254
 103.224       223
 103.254       191
 103.284       224
 103.313       208
 103.343       193
 103.373       220
 103.402       182
 103.432       166
 103.462       178
 103.491       167
 103.521       161
 103.550       166
 103.580       158
 103.609       166
 103.639       152
 103.668       159
 103.698       141
 103.727       148
 103.757       131
 103.786       148
 103.815       151
 103.845       140
 103.874       131
 103.903       176
 103.933       131
 103.962       125
 103.991       137
 104.020       168
 104.050       145
 104.079       148
 104.108       138
 104.137       159
 104.166       120
 104.195       136
 104.224       156
 104.253       131
 104.282       154
 104.311       152
 104.340       138
 104.369       133
 104.398       157
 104.427       116
 104.456       151
 104.485       158
 104.514       139
 104.543       122
 104.572       130
 104.601       119
 104.630       134
 104.658       136
 104.687       119
 104.716       135
 104.745       116
 104.774       127
 104.802       131
 104.831       138
 104.860       132
 104.889       122
 104.917       126
 104.946       134
 104.975       140
 105.004       163
 105.032       132
 105.061       128
 105.090       133
 105.118       127
 105.147       136
 105.175       129
 105.204       141
 105.233       123
 105.261       109
 105.290       111
 105.318       138
 105.347       132
 105.376       128
 105.404       130
 105.433       148
 105.461       143
 105.490       121
 105.518       138
 105.547       140
 105.575       131
 105.604       118
 105.632       120
 105.661       121
 105.689       130
 105.718       143
 105.746       129
 105.775       130
 105.803       129
 105.832       148
 105.860       139
 105.889       131
 105.917       119
 105.946       122
 105.974       121
 106.003       145
 106.031       131
 106.060       125
 106.088       120
 106.116       129
 106.145       142
 106.173       131
 106.202       159
 106.230       119
 106.259       136
 106.287       136
 106.316       128
 106.344       130
 106.373       143
 106.401       117
 106.429       135
 106.458       128
 106.486       132
 106.515       128
 106.543       127
 106.572       136
 106.600       140
 106.629       123
 106.657       132
 106.686       146
 106.714       133
 106.743       125
 106.771       138
 106.800       150
 106.828       122
 106.857       122
 106.885       139
 106.914       129
 106.942       107
 106.971       137
 106.999       141
 107.028       128
 107.056       127
 107.085       134
 107.114       133
 107.142       151
 107.171       147
 107.199       127
 107.228       128
 107.257       133
 107.285       154
 107.314       151
 107.342       151
 107.371       141
 107.400       156
 107.428       130
 107.457       131
 107.486       164
 107.514       143
 107.543       142
 107.572       153
 107.601       133
 107.629       144
 107.658       142
 107.687       140
 107.716       130
 107.745       144
 107.773       142
 107.802       134
 107.831       154
 107.860       134
 107.889       141
 107.918       157
 107.947       148
 107.975       155
 108.004       133
 108.033       157
 108.062       157
 108.091       158
 108.120       148
 108.149       153
 108.178       148
 108.207       131
 108.236       111
 108.266       151
 108.295       152
 108.324       121
 108.353       144
 108.382       141
 108.411       161
 108.440       146
 108.470       127
 108.499       163
 108.528       151
 108.557       128
 108.587       171
 108.616       131
 108.645       136
 108.675       141
 108.704       161
 108.734       153
 108.763       159
 108.792       131
 108.822       167
 108.851       141
 108.881       130
 108.910       171
 108.940       149
 108.970       135
 108.999       151
 109.029       138
 109.059       150
 109.088       158
 109.118       168
 109.148       171
 109.177       153
 109.207       158
 109.237       144
 109.267       159
 109.297       176
 109.327       162
 109.357       193
 109.387       153
 109.416       160
 109.447       184
 109.477       163
 109.507       193
 109.537       188
 109.567       178
 109.597       165
 109.627       202
 109.657       173
 109.688       153
 109.718       182
 109.748       173
 109.778       153
 109.809       137
 109.839       147
 109.870       162
 109.900       168
 109.931       141
 109.961       162
 109.992       167
 110.022       173
 110.053       150
 110.084       183
 110.114       145
 110.145       158
 110.176       190
 110.206       169
 110.237       158
 110.268       136
 110.299       158
 110.330       150
 110.361       128
 110.392       152
 110.423       146
 110.454       144
 110.485       162
 110.516       126
 110.547       143
 110.579       161
 110.610       155
 110.641       148
 110.673       153
 110.704       153
 110.735       156
 110.767       139
 110.798       147
 110.830       147
 110.861       184
 110.893       157
 110.925       156
 110.956       112
 110.988       174
 111.020       131
 111.052       129
 111.083       151
 111.115       147
 111.147       129
 111.179       159
 111.211       151
 111.243       126
 111.275       146
 111.307       147
 111.339       150
 111.371       138
 111.403       137
 111.435       124
 111.467       167
 111.499       163
 111.531       133
 111.564       133
 111.596       157
 111.628       144
 111.660       169
 111.692       167
 111.725       127
 111.757       147
 111.789       149
 111.821       156
 111.854       132
 111.886       163
 111.918       142
 111.950       159
 111.983       159
 112.015       155
 112.047       141
 112.079       162
 112.112       144
 112.144       135
 112.176       151
 112.208       158
 112.241       152
 112.273       146
 112.305       139
 112.337       160
 112.369       145
 112.401       166
 112.434       158
 112.466       129
 112.498       143
 112.530       160
 112.562       154
 112.594       151
 112.626       145
 112.658       143
 112.690       157
 112.722       143
 112.754       145
 112.786       159
 112.818       168
 112.850       151
 112.882       174
 112.914       164
 112.945       182
 112.977       158
 113.009       153
 113.041       162
 113.072       172
 113.104       187
 113.135       164
 113.167       178
 113.198       183
 113.230       154
 113.261       171
 113.293       173
 113.324       173
 113.355       176
 113.387       191
 113.418       187
 113.449       186
 113.480       207
 113.511       197
 113.542       191
 113.573       217
 113.604       253
 113.635       232
 113.665       265
 113.696       246
 113.727       316
 113.757       315
 113.788       333
 113.818       366
 113.849       367
 113.879       381
 113.909       444
 113.940       421
 113.970       427
 114.000       462
 114.030       456
 114.060       460
 114.090       493
 114.119       488
 114.149       480
 114.179       451
 114.208       426
 114.238       418
 114.267       401
 114.297       401
 114.326       367
 114.356       361
 114.385       291
 114.414       320
 114.444       285
 114.473       254
 114.502       252
 114.531       290
 114.560       264
 114.589       215
 114.619       217
 114.648       201
 114.677       241
 114.706       219
 114.735       197
 114.764       197
 114.793       215
 114.822       190
 114.851       194
 114.880       209
 114.910       198
 114.939       171
 114.968       178
 114.997       154
 115.027       181
 115.056       157
 115.085       170
 115.115       155
 115.144       167
 115.173       183
 115.203       159
 115.233       140
 115.262       169
 115.292       152
 115.322       139
 115.352       180
 115.381       172
 115.411       126
 115.442       160
 115.472       153
 115.502       169
 115.532       134
 115.563       158
 115.593       164
 115.624       158
 115.654       144
 115.685       176
 115.716       147
 115.747       153
 115.778       141
 115.809       160
 115.841       126
 115.872       163
 115.904       157
 115.936       160
 115.968       159
 116.000       157
 116.032       156
 116.064       164
 116.097       168
 116.129       151
 116.162       159
 116.195       145
 116.228       148
 116.260       178
 116.293       160
 116.326       200
 116.359       176
 116.392       200
 116.425       205
 116.458       206
 116.490       194
 116.523       187
 116.555       171
 116.587       186
 116.619       216
 116.651       218
 116.683       233
 116.714       215
 116.745       233
 116.776       216
 116.807       237
 116.837       255
 116.868       265
 116.898       248
 116.928       261
 116.957       278
 116.987       246
 117.017       257
 117.046       266
 117.075       250
 117.104       228
 117.133       229
 117.162       285
 117.191       244
 117.219       286
 117.248       266
 117.276       307
 117.304       315
 117.332       321
 117.360       308
 117.388       341
 117.416       375
 117.444       391
 117.471       365
 117.499       351
 117.526       325
 117.554       327
 117.581       294
 117.609       281
 117.636       266
 117.663       229
 117.691       256
 117.718       232
 117.745       234
 117.772       211
 117.799       211
 117.827       189
 117.856       179
 117.888       203
 117.920       197
 117.952       168
 117.983       178
 118.015       178
 118.047       171
 118.079       160
 118.111       163
 118.143       185
 118.175       174
 118.207       158
 118.239       165
 118.271       160
 118.303       155
 118.335       150
 118.367       141
 118.398       159
 118.430       175
 118.462       162
 118.494       172
 118.526       145
 118.558       162
 118.590       181
 118.622       156
 118.654       136
 118.686       146
 118.718       166
 118.750       149
 118.782       181
 118.814       144
 118.845       183
 118.877       148
 118.909       156
 118.941       160
 118.973       158
 119.005       143
 119.037       159
 119.069       161
 119.101       155
 119.133       156
 119.165       182
 119.197       171
 119.229       159
 119.260       157
 119.292       132
 119.324       153
 119.356       157
 119.388       170
 119.420       171
 119.452       151
 119.484       168
 119.516       164
 119.548       149
 119.580       149
 119.612       152
 119.644       165
 119.676       147
 119.707       168
 119.739       173
 119.771       187
 119.803       156
 119.835       170
 119.867       176
 119.899       162
 119.931       163
 119.963       159
 119.995       185
 120.027       148
 120.059       171
 120.091       170
 120.122       187
 120.154       170
 120.186       155
 120.218       168
 120.250       197
 120.282       154
 120.314       170
 120.346       169
 120.378       177
 120.410       178
 120.442       171
 120.474       185
 120.506       176
 120.538       202
 120.569       173
 120.601       207
 120.633       191
 120.665       203
 120.697       188
 120.729       193
 120.761       208
 120.793       248
 120.825       209
 120.857       202
 120.889       226
 120.921       210
 120.953       230
 120.984       232
 121.016       238
 121.048       224
 121.080       220
 121.112       217
 121.144       234
 121.176       205
 121.208       231
 121.240       198
 121.272       189
 121.304       195
 121.336       227
 121.368       208
 121.400       220
 121.431       195
 121.463       203
 121.495       193
 121.527       213
 121.559       211
 121.591       212
 121.623       197
 121.655       395
 121.687       371
 121.719       422
 121.751       354
 121.783       418
 121.815       404
 121.846       399
 121.878       364
 121.910       418
 121.942       393
 121.974       377
 122.006       349
 122.038       402
 122.070       354
 122.102       331
 122.134       364
 122.166       363
 122.198       335
 122.230       341
 122.261       340
 122.293       329
 122.325       304
 122.357       315
 122.389       281
 122.421       297
 122.453       297
 122.485       251
 122.517       232
 122.549       266
 122.581       244
 122.613       251
 122.645       238
 122.677       267
 122.708       222
 122.740       261
 122.772       226
 122.804       241
 122.836       249
 122.868       243
 122.900       203
 122.932       236
 122.964       194
 122.996       195
 123.028       225
 123.060       204
 123.092       196
 123.123       180
 123.155       182
 123.187       145
 123.219       199
 123.251       162
 123.283       161
 123.315       161
 123.347       169
 123.379       190
 123.411       157
 123.443       146
 123.475       125
 123.507       157
 123.539       130
 123.570       126
 123.602       104
 123.634       126
 123.666       106
 123.698       111
 123.730       107
 123.762       109
 123.794       109
 123.826       113
 123.858       112
 123.890        96
 123.922        92
 123.954        91
 123.985        70
 124.017        77
 124.049        84
 124.081        77
 124.113        87
 124.145        59
 124.177        68
 124.209        47
 124.241        48
 124.273        50
 124.305        58
 124.337        38
 124.369        35
 124.401        40
 124.432        43
 124.464        22
 124.496        17
 124.528        19
 124.560         0
